#Creator: pendulumviewEventBuffer
#Creation time: Wed Feb 22 15:33:09 2017
#Time A	Pos A	Time B	Pos B
#[s]	[au]	[s]	[au]
0.026	537	0.051	462
0.076	523	0.102	462
0.127	508	0.153	462
0.177	489	0.203	463
0.229	467	0.254	462
0.279	444	0.304	463
0.330	422	0.355	463
0.380	403	0.406	463
0.431	385	0.457	462
0.481	369	0.507	463
0.533	358	0.558	463
0.583	350	0.608	462
0.634	348	0.660	463
0.684	351	0.710	463
0.735	359	0.761	463
0.787	371	0.811	463
0.837	388	0.862	462
0.888	408	0.913	462
0.938	428	0.964	462
0.989	451	1.014	462
1.040	473	1.065	463
1.091	494	1.115	462
1.141	514	1.167	462
1.192	529	1.217	462
1.242	541	1.268	462
1.293	546	1.318	462
1.344	548	1.369	461
1.395	544	1.419	462
1.445	536	1.471	462
1.496	523	1.521	462
1.546	507	1.572	462
1.598	489	1.622	463
1.648	468	1.673	463
1.699	446	1.724	463
1.749	424	1.775	463
1.800	404	1.825	463
1.851	386	1.876	462
1.902	373	1.926	463
1.952	362	1.978	463
2.003	357	2.028	463
2.053	355	2.079	463
2.104	359	2.129	463
2.155	367	2.180	462
2.206	380	2.230	463
2.256	395	2.282	462
2.307	413	2.332	461
2.357	434	2.383	462
2.409	454	2.433	461
2.459	475	2.484	461
2.510	494	2.535	461
2.560	511	2.586	461
2.611	523	2.636	461
2.662	533	2.687	462
2.713	537	2.737	463
2.763	538	2.789	463
2.814	535	2.839	463
2.864	528	2.890	463
2.915	516	2.940	464
2.966	501	2.991	463
3.017	484	3.041	463
3.067	466	3.093	464
3.118	445	3.143	464
3.168	424	3.194	463
3.220	406	3.244	464
3.270	388	3.295	463
3.321	374	3.346	462
3.371	365	3.397	463
3.422	360	3.447	462
3.473	358	3.498	462
3.524	362	3.548	462
3.574	369	3.600	461
3.625	380	3.650	461
3.675	394	3.701	462
3.727	411	3.751	461
3.777	432	3.802	462
3.828	451	3.853	462
3.878	471	3.904	461
3.929	488	3.955	461
3.979	505	4.005	462
4.031	518	4.056	462
4.081	527	4.106	462
4.132	533	4.158	463
4.182	535	4.208	463
4.233	530	4.259	464
4.284	525	4.309	464
4.335	514	4.360	464
4.385	500	4.411	465
4.436	484	4.462	464
4.486	467	4.512	464
4.538	447	4.563	465
4.588	428	4.613	463
4.639	409	4.664	464
4.689	393	4.715	463
4.740	380	4.766	462
4.790	371	4.816	462
4.842	366	4.867	461
4.892	365	4.917	461
4.943	369	4.969	461
4.993	376	5.019	461
5.044	387	5.070	461
5.095	400	5.120	462
5.146	416	5.171	461
5.196	433	5.222	461
5.247	452	5.273	461
5.297	469	5.323	462
5.349	485	5.374	461
5.399	500	5.424	463
5.450	512	5.475	463
5.500	522	5.526	463
5.551	529	5.577	464
5.601	531	5.627	464
5.653	529	5.678	464
5.703	522	5.728	464
5.754	512	5.780	464
5.804	498	5.830	464
5.855	482	5.881	464
5.906	465	5.931	464
5.957	447	5.982	464
6.007	429	6.033	463
6.058	413	6.084	463
6.108	396	6.134	462
6.160	384	6.185	462
6.210	375	6.235	462
6.261	371	6.287	462
6.311	369	6.337	461
6.362	371	6.388	461
6.412	378	6.438	462
6.464	387	6.489	461
6.514	400	6.539	462
6.565	415	6.591	461
6.615	432	6.641	462
6.666	450	6.692	462
6.717	468	6.742	462
6.768	484	6.793	463
6.818	499	6.844	463
6.869	512	6.895	463
6.919	521	6.945	463
6.971	526	6.996	464
7.021	528	7.046	464
7.072	524	7.098	464
7.122	518	7.148	464
7.173	509	7.199	464
7.223	497	7.249	463
7.275	482	7.300	463
7.325	465	7.350	463
7.376	448	7.402	463
7.426	432	7.452	462
7.477	416	7.503	462
7.528	402	7.553	462
7.579	389	7.604	462
7.629	380	7.655	461
7.680	375	7.706	461
7.730	373	7.756	461
7.782	375	7.807	461
7.832	382	7.857	461
7.883	391	7.909	461
7.933	404	7.959	462
7.984	418	8.010	462
8.034	434	8.060	463
8.086	450	8.111	463
8.136	467	8.161	463
8.187	483	8.213	463
8.237	497	8.263	464
8.288	508	8.314	463
8.339	517	8.364	464
8.390	522	8.415	464
8.440	523	8.466	464
8.491	520	8.517	464
8.541	514	8.567	463
8.593	506	8.618	464
8.643	495	8.668	463
8.694	481	8.720	463
8.744	466	8.770	463
8.795	450	8.821	462
8.845	434	8.871	462
8.897	419	8.922	462
8.947	405	8.972	462
8.998	394	9.024	462
9.048	385	9.074	461
9.099	380	9.125	461
9.150	379	9.175	461
9.201	381	9.226	462
9.251	387	9.277	461
9.302	396	9.328	461
9.352	407	9.378	462
9.404	421	9.429	463
9.454	436	9.479	463
9.505	451	9.531	462
9.555	467	9.581	463
9.606	482	9.632	463
9.656	495	9.682	464
9.708	507	9.733	464
9.758	514	9.783	464
9.809	519	9.835	464
9.859	519	9.885	463
9.910	517	9.936	464
9.962	512	9.986	463
10.012	503	10.037	464
10.063	492	10.088	463
10.113	479	10.139	463
10.164	465	10.189	462
10.215	451	10.240	462
10.266	435	10.290	461
10.316	421	10.342	462
10.367	408	10.392	461
10.417	397	10.443	461
10.469	389	10.493	461
10.519	384	10.544	461
10.570	383	10.594	461
10.620	384	10.646	461
10.671	390	10.696	462
10.721	398	10.747	462
10.773	409	10.797	463
10.823	423	10.848	463
10.874	437	10.899	463
10.924	452	10.950	463
10.975	467	11.000	464
11.026	481	11.051	463
11.077	493	11.101	465
11.127	502	11.153	464
11.178	509	11.203	464
11.228	513	11.254	463
11.280	514	11.304	464
11.330	511	11.355	463
11.381	506	11.405	463
11.431	499	11.457	463
11.482	488	11.507	461
11.532	476	11.558	462
11.584	464	11.608	462
11.634	449	11.659	462
11.685	436	11.710	462
11.735	423	11.761	461
11.786	411	11.811	461
11.837	401	11.862	462
11.888	394	11.912	461
11.938	389	11.964	462
11.989	388	12.014	462
12.039	390	12.065	462
12.091	395	12.115	462
12.141	403	12.166	463
12.192	413	12.216	463
12.242	425	12.268	463
12.293	439	12.318	464
12.343	452	12.369	463
12.395	467	12.419	464
12.445	480	12.470	463
12.496	491	12.521	464
12.546	501	12.572	463
12.597	507	12.622	463
12.648	510	12.673	463
12.699	511	12.723	463
12.749	509	12.775	463
12.800	504	12.825	462
12.850	497	12.876	462
12.902	488	12.926	462
12.952	477	12.977	462
13.003	465	13.027	461
13.053	451	13.079	462
13.104	438	13.130	461
13.154	424	13.180	462
13.206	413	13.231	462
13.256	402	13.281	462
13.307	395	13.333	462
13.357	391	13.383	462
13.408	389	13.434	462
13.459	391	13.484	463
13.510	396	13.535	463
13.560	403	13.586	463
13.611	413	13.637	463
13.661	425	13.687	463
13.713	438	13.738	463
13.763	451	13.788	463
13.814	465	13.840	464
13.864	477	13.890	463
13.915	488	13.941	463
13.965	496	13.991	462
14.017	503	14.042	463
14.067	507	14.092	462
14.118	508	14.144	462
14.168	506	14.194	462
14.219	502	14.245	462
14.270	495	14.295	462
14.321	486	14.346	461
14.371	476	14.397	461
14.422	464	14.448	462
14.472	451	14.498	462
14.524	438	14.549	461
14.574	427	14.599	462
14.625	416	14.651	462
14.675	407	14.701	463
14.726	400	14.752	463
14.776	395	14.802	463
14.828	394	14.853	463
14.878	397	14.903	463
14.929	402	14.955	463
14.979	408	15.005	463
15.030	417	15.056	463
15.081	428	15.106	463
15.132	440	15.157	463
15.182	452	15.208	464
15.233	465	15.259	462
15.283	478	15.309	463
15.335	488	15.360	463
15.385	497	15.410	463
15.436	502	15.462	463
15.486	506	15.512	462
15.537	507	15.563	462
15.587	505	15.613	462
15.639	502	15.664	462
15.689	495	15.714	462
15.740	486	15.766	462
15.790	476	15.816	462
15.841	464	15.867	463
15.892	452	15.917	463
15.943	440	15.968	462
15.993	428	16.019	462
16.044	418	16.070	463
16.094	409	16.120	463
16.146	403	16.171	463
16.196	398	16.221	463
16.247	397	16.273	463
16.297	399	16.323	463
16.348	402	16.374	463
16.399	409	16.424	463
16.450	417	16.475	463
16.500	428	16.525	463
16.551	438	16.577	463
16.601	450	16.627	463
16.652	462	16.678	463
16.703	474	16.728	462
16.754	485	16.779	463
16.804	492	16.830	462
16.855	499	16.881	462
16.905	503	16.931	462
16.957	504	16.982	462
17.007	502	17.032	462
17.058	498	17.084	463
17.108	493	17.134	462
17.159	484	17.185	462
17.210	474	17.235	463
17.261	464	17.286	463
17.311	451	17.336	464
17.362	440	17.388	463
17.412	429	17.438	464
17.463	419	17.489	463
17.514	411	17.539	463
17.565	405	17.590	462
17.616	401	17.641	464
17.666	400	17.692	463
17.717	401	17.742	463
17.768	405	17.793	463
17.819	411	17.843	463
17.869	418	17.895	462
17.920	427	17.945	462
17.970	438	17.996	462
18.022	449	18.046	462
18.072	460	18.097	462
18.123	470	18.147	462
18.173	480	18.199	462
18.224	488	18.249	462
18.274	494	18.300	462
18.326	498	18.350	462
18.376	499	18.401	463
18.427	498	18.452	462
18.477	495	18.503	463
18.528	489	18.553	463
18.579	481	18.604	463
18.630	472	18.654	463
18.680	462	18.706	463
18.731	451	18.756	463
18.781	440	18.807	463
18.833	430	18.857	464
18.883	421	18.908	463
18.934	413	18.959	463
18.984	407	19.010	463
19.035	404	19.060	463
19.085	403	19.111	462
19.137	404	19.161	462
19.187	408	19.212	463
19.238	413	19.263	462
19.288	420	19.314	462
19.339	429	19.364	461
19.390	439	19.415	462
19.441	448	19.465	462
19.491	460	19.517	461
19.542	470	19.567	462
19.592	480	19.618	462
19.644	487	19.668	462
19.694	494	19.719	462
19.745	497	19.770	462
19.795	498	19.821	462
19.846	497	19.871	463
19.896	493	19.922	463
19.948	488	19.972	463
19.998	481	20.023	463
20.049	472	20.074	463
20.099	462	20.125	463
20.150	452	20.175	464
20.201	442	20.226	463
20.252	432	20.276	463
20.302	423	20.328	463
20.353	416	20.378	463
20.403	411	20.429	462
20.455	408	20.479	462
20.505	406	20.530	462
20.556	408	20.581	462
20.606	411	20.632	462
20.657	415	20.683	462
20.707	422	20.733	462
20.759	430	20.784	462
20.809	440	20.834	462
20.860	449	20.886	462
20.910	459	20.936	462
20.961	469	20.987	462
21.012	478	21.037	463
21.063	485	21.088	463
21.113	491	21.139	462
21.164	494	21.190	463
21.214	495	21.240	463
21.266	494	21.291	463
21.316	491	21.341	463
21.367	486	21.393	464
21.417	480	21.443	463
21.468	471	21.494	464
21.519	463	21.544	464
21.570	453	21.595	463
21.620	443	21.645	463
21.671	434	21.697	463
21.721	425	21.747	463
21.772	419	21.798	463
21.823	414	21.848	462
21.874	410	21.899	463
21.924	409	21.950	462
21.975	410	22.001	462
22.025	412	22.051	462
22.077	417	22.102	462
22.127	424	22.152	461
22.178	431	22.204	462
22.228	439	22.254	462
22.279	448	22.305	462
22.330	458	22.355	462
22.381	467	22.406	462
22.431	475	22.456	462
22.482	482	22.508	463
22.532	487	22.558	463
22.583	491	22.609	464
22.634	492	22.659	463
22.685	492	22.710	463
22.735	489	22.761	463
22.786	484	22.812	463
22.836	479	22.862	463
22.888	470	22.913	464
22.938	462	22.963	463
22.989	453	23.015	463
23.039	443	23.065	463
23.090	435	23.116	463
23.141	427	23.166	462
23.192	421	23.217	462
23.242	416	23.267	462
23.293	412	23.319	462
23.343	412	23.369	462
23.394	412	23.420	462
23.445	415	23.470	462
23.496	420	23.521	462
23.546	426	23.572	461
23.597	433	23.623	461
23.647	441	23.673	462
23.699	449	23.724	463
23.749	459	23.774	462
23.800	466	23.826	462
23.850	474	23.876	463
23.901	481	23.927	463
23.952	485	23.977	463
24.003	489	24.028	463
24.053	490	24.079	464
24.104	489	24.130	464
24.154	487	24.180	463
24.205	483	24.231	463
24.256	477	24.281	463
24.307	469	24.332	462
24.358	461	24.383	464
24.408	453	24.434	463
24.459	445	24.484	462
24.510	437	24.535	463
24.561	430	24.585	462
24.611	424	24.637	462
24.662	419	24.687	462
24.712	416	24.738	462
24.764	416	24.788	461
24.814	416	24.839	462
24.865	418	24.890	462
24.915	423	24.941	462
24.966	428	24.991	462