#Creator: wheelEventBuffer
#Creation time: Wed Apr  5 15:17:47 2017
#Time	Angular velocity
#[s]	[rad/s]
1.223820	0.572984
1.726840	0.748683
2.129380	0.837847
2.497464	0.879244
2.852674	0.894511
3.203298	0.899078
3.552202	0.901006
3.898530	0.910300
4.237176	0.939354
4.561606	0.994187
4.865744	1.072458
5.146226	1.171371
5.402460	1.287844
5.636124	1.412472
5.849902	1.537735
6.047110	1.658463
6.230668	1.773989
6.402864	1.882930
6.565884	1.980228
6.721444	2.064935
6.871288	2.134901
7.016826	2.188043
7.159492	2.221494
7.300450	2.239292
7.440612	2.245823
7.580512	2.246337
7.720384	2.245438
7.860250	2.246241
7.999862	2.252296
8.138778	2.267479
8.276454	2.294875
8.412144	2.332704
8.545216	2.385851
8.675234	2.447715
8.801806	2.516939
8.924886	2.588912
9.044612	2.661825
9.161120	2.733056
9.274786	2.798647
9.385904	2.858384
9.494946	2.907590
9.602322	2.947140
9.708514	2.973416
9.813926	2.989260
9.918940	2.996102
10.023748	2.999248
10.128440	3.001770
10.233032	3.005331
10.337376	3.014386
10.441262	3.030787
10.544420	3.059119
10.646476	3.095104
10.747186	3.141404
10.846412	3.192027
10.943968	3.248467
11.039824	3.306244
11.134038	3.364814
11.226606	3.423035
11.317710	3.477059
11.407428	3.527184
11.496026	3.567964
11.583698	3.601009
11.670714	3.622936
11.757294	3.636018
11.843664	3.640569
11.929938	3.642426
12.016162	3.644032
12.102330	3.647586
12.188354	3.654970
12.274118	3.668199
12.359486	3.691822
12.444236	3.719974
12.528240	3.757077
12.611420	3.797680
12.693622	3.845090
12.774800	3.894182
12.854978	3.944346
12.934126	3.993685
13.012370	4.039491
13.089736	4.082429
13.166382	4.117637
13.242424	4.147208
13.318018	4.167121
13.393306	4.179873
13.468444	4.184438
13.543512	4.185776
13.618550	4.187227
13.693562	4.188790
13.768500	4.194383
13.843280	4.205050
13.917808	4.225751
13.991920	4.250220
14.065524	4.283367
14.138588	4.317984
14.210992	4.359085
14.282706	4.401223
14.353742	4.445440
14.424060	4.488887
14.493742	4.530838
14.562780	4.570121
14.631306	4.601718
14.699388	4.628293
14.767158	4.646089
14.834696	4.657938
14.902130	4.661808
14.969498	4.664577
15.036836	4.665963
15.104156	4.667626
15.171416	4.672625
15.238564	4.681817
15.305544	4.699887
15.372222	4.720934
15.438544	4.750057
15.504478	4.781142
15.569926	4.817950
15.634864	4.856831
15.699292	4.896803
15.763186	4.935886
15.826612	4.972920
15.889554	5.009236
15.952098	5.038964
16.014300	5.063818
16.076248	5.081181
16.138012	5.092878
16.199690	5.096017
16.261330	5.097836
16.322950	5.098167
16.384570	5.098829
16.446146	5.103634
16.507636	5.111938
16.568994	5.129131
16.630122	5.147958
16.690972	5.174583
16.751538	5.201829
16.811732	5.234941
16.871534	5.270068
16.930950	5.306924
16.989936	5.343390
17.048556	5.377966
17.106784	5.411687
17.164704	5.438857
17.222346	5.462499
17.279788	5.478121
17.337082	5.489416
17.394296	5.494024
17.451472	5.495754
17.508628	5.496908
17.565776	5.497677
17.622898	5.501143
17.679958	5.507701
17.736918	5.523582
17.793700	5.540923
17.850254	5.565463
17.906584	5.591415
17.962610	5.621833
18.018322	5.654822
18.073722	5.688612
18.128776	5.721974
18.183538	5.754465
18.237974	5.786688
18.292158	5.812167
18.346100	5.835704
18.399880	5.850919
18.453524	5.861618
18.507118	5.865120
18.560678	5.865558
18.614234	5.865996
18.667784	5.867310
18.721310	5.870600
18.774782	5.876969
18.828174	5.892180
18.881416	5.907692
18.934478	5.930219
18.987366	5.952692
19.040006	5.981935
19.092382	6.012157
19.144504	6.044779
19.196334	6.076346
19.247916	6.106583
19.299230	6.137362
19.350324	6.161919
19.401220	6.184238
19.451972	6.198147
19.502610	6.210154
19.553200	6.212364
19.603762	6.213839
19.654320	6.214085
19.704876	6.213839
19.755418	6.217036
19.805920	6.221715
19.856360	6.236288
19.906674	6.250184
19.956838	6.271896
20.006862	6.291490
20.056682	6.318569
20.106284	6.346652
20.155674	6.376797
20.204820	6.406445
20.253754	6.435316
20.302456	6.465247
20.350970	6.488213
20.399310	6.509993
20.447526	6.524053
20.495642	6.534366
20.543720	6.537358
20.591770	6.538174
20.639816	6.538991
20.687860	6.539263
20.735890	6.542259
20.783882	6.546621
20.831826	6.560292
20.879664	6.572920
20.927372	6.593336
20.974962	6.612487
21.022368	6.639599
21.069582	6.666651
21.116626	6.692784
21.163492	6.713379
21.210256	6.726027
21.256938	6.734101
21.303620	6.728908
21.350364	6.715101
21.397244	6.690503
21.444312	6.659585
21.491640	6.619454
21.539246	6.578425
21.587156	6.535998
21.635380	6.493846
21.683904	6.454355
21.732710	6.416652
21.781784	6.388467
21.831066	6.359757
21.880534	6.338201
21.930202	6.315267
21.980004	6.299312
22.029924	6.285197
22.079966	6.272397
22.130096	6.259400
22.180350	6.245463
22.230700	6.232577
22.281192	6.213347
22.331850	6.191062
22.382726	6.160952
22.433858	6.128024
22.485310	6.086471
22.537114	6.042454
22.589298	5.998153
22.641874	5.952917
22.694836	5.910360
22.748164	5.869503
22.801840	5.837439
22.855794	5.806796
22.909992	5.782853
22.964438	5.759529
23.019060	5.742264
23.073832	5.726981
23.128764	5.713441
23.183810	5.698931
23.239018	5.683877
23.294358	5.669108
23.349888	5.648112
23.405634	5.623846
23.461676	5.590420
23.518066	5.553264
23.574890	5.506543
23.632196	5.458134
23.690018	5.408520
23.748376	5.358885
23.807248	5.312847
23.866614	5.268830
23.926446	5.233894
23.986654	5.200279
24.047202	5.173901
24.108080	5.148970
24.169196	5.130136
24.230524	5.113436
24.292060	5.098829
24.353756	5.083483
24.415674	5.066431
24.477786	5.048844
24.540174	5.024458
24.602888	4.995695
24.666034	4.957852
24.729684	4.914575
24.793966	4.862695
24.858942	4.808217
24.924668	4.752213
24.991178	4.695392
25.058470	4.641559
25.126514	4.590421
25.195274	4.548287
25.264630	4.509506
25.334516	4.478138
25.404912	4.448966
25.475688	4.426898
25.546800	4.407150
25.618238	4.389538
25.689940	4.371946
25.761976	4.352442
25.834338	4.330484
25.907144	4.302019
25.980488	4.267077
26.054534	4.221436
26.129448	4.168227
26.205418	4.105584
26.282568	4.039906
26.360990	3.972878
26.440756	3.905608
26.521852	3.841893
26.604244	3.782408
26.687872	3.731728
26.772552	3.686190
26.858174	3.649365
26.944668	3.616097
27.031838	3.590392
27.119610	3.566749
27.207972	3.545175
27.296852	3.523229
27.386370	3.498121
27.476560	3.469073
27.567652	3.431634
27.659858	3.385775
27.753516	3.327253
27.848988	3.257765
27.946686	3.177820
28.046956	3.092058
28.150106	3.002287
28.256390	2.911902
28.365936	2.825072
28.478746	2.744180
28.594736	2.673832
28.713596	2.610901
28.835076	2.559134
28.958950	2.513556
29.084892	2.474747
29.212726	2.439352
29.342410	2.406466
29.473852	2.373772
29.607350	2.336069
29.743260	2.289924
29.882414	2.230674
30.025916	2.155200
30.175428	2.057659
30.333148	1.938321
30.502016	1.797970
30.685824	1.639542
30.890008	1.462294
31.123274	1.264894
31.400964	1.045281
31.758734	0.790748
32.918148	0.250147
33.569608	0.223431
34.845932	0.588441
35.325934	0.780698
35.696568	0.950891
36.005450	1.110535
36.273102	1.258197
36.511636	1.392772
36.728702	1.515394
36.929604	1.623378
37.118438	1.713721
37.298344	1.785889
37.471762	1.842706
37.640440	1.885914
37.805824	1.917172
37.968706	1.940812
38.129662	1.963544
38.288684	1.987142
38.445750	2.012577
38.600708	2.042621
38.753186	2.076372
38.903022	2.116520
39.049970	2.159734
39.193688	2.210832
39.333922	2.269281
39.470444	2.334021
39.603164	2.401315
39.732220	2.469340
39.857854	2.534973
39.980414	2.594428
40.100382	2.646577
40.218248	2.687511
40.334506	2.719570
40.449566	2.742887
40.563798	2.759705
40.677344	2.773348
40.790350	2.787274
40.902740	2.802341
41.014498	2.818785
41.125526	2.840911
41.235586	2.865841
41.344572	2.897720
41.452314	2.934203
41.558554	2.978491
41.663170	3.026757
41.766068	3.080114
41.867168	3.134947
41.966518	3.190276
42.064198	3.244374
42.160338	3.292936
42.255164	3.335803
42.348900	3.369506
42.441788	3.396904
42.534018	3.416557
42.625798	3.431559
42.717172	3.443898
42.808256	3.455413
42.898998	3.467771
42.989408	3.480912
43.079446	3.498744
43.168966	3.517785
43.257938	3.542857
43.346270	3.570722
43.433782	3.607046
43.520384	3.647247
43.606006	3.691475
43.690578	3.737589
43.774124	3.783593
43.856686	3.828503
43.938336	3.868099
44.019208	3.903278
44.099426	3.931414
44.179122	3.953977
44.258418	3.970367
44.337436	3.983355
44.416192	3.993381
44.494786	4.002743
44.573158	4.012969
44.651326	4.024072
44.729250	4.040634
44.806812	4.057647
44.884004	4.080944
44.960762	4.105369
45.036972	4.137376
45.112588	4.171326
45.187554	4.210009
45.261824	4.249645
45.335402	4.290035
45.408308	4.329887
45.480582	4.364536
45.552324	4.395557
45.623616	4.419177
45.694562	4.438908
45.765228	4.452497
45.835716	4.463377
45.906020	4.472400
45.976202	4.481587
46.046218	4.491198
46.116084	4.501107
46.185780	4.515599
46.255220	4.530577
46.324394	4.551054
46.393268	4.572516
46.461738	4.602122
46.529762	4.633617
46.597306	4.669153
46.664328	4.705237
46.730840	4.741597
46.796860	4.777216
46.862418	4.807628
46.927590	4.835005
46.992432	4.856381
47.057016	4.873860
47.121392	4.885988
47.185640	4.895887
47.249742	4.904141
47.313766	4.911655
47.377662	4.920116
47.441444	4.929535
47.505092	4.944276
47.568526	4.958635
47.631750	4.977963
47.694742	4.997761
47.757422	5.024458
47.819764	5.053229
47.881734	5.085952
47.943300	5.119435
48.004460	5.153531
48.065226	5.188256
48.125624	5.215820
48.185748	5.237384
48.245694	5.247006
48.305594	5.245605
48.365582	5.230757
48.425814	5.205104
48.486374	5.170325
48.547404	5.128461
48.608938	5.082167
48.671046	5.034120
48.733724	4.992043
48.796904	4.950977
48.860572	4.915959
48.924710	4.881585
48.989238	4.854280
49.054118	4.828614
49.119336	4.806010
49.184846	4.784346
49.250656	4.763309
49.316770	4.741740
49.383212	4.715124
49.450062	4.685867
49.517370	4.650353
49.585232	4.610497
49.653716	4.564676
49.722930	4.516118
49.792884	4.465027
49.863672	4.412969
49.935280	4.360900
50.007748	4.309218
50.081072	4.262098
50.155176	4.214753
50.230086	4.172323
50.305764	4.131174
50.382112	4.096803
50.459076	4.065734
50.536600	4.039075
50.614610	4.014507
50.693104	3.990337
50.772092	3.965656
50.851620	3.935945
50.931806	3.901921
51.012776	3.860114
51.094690	3.812705
51.177692	3.758515
51.261968	3.700170
51.347598	3.637787
51.434762	3.573240
51.523496	3.508356
51.613894	3.442615
51.706006	3.380965
51.799758	3.319940
51.895170	3.264806
51.992192	3.212131
52.090664	3.167183
52.190500	3.125590
52.291594	3.089382
52.393840	3.055370
52.497230	3.022099
52.601790	2.988407
52.707628	2.949797
52.814998	2.905224
52.924226	2.850396
53.035762	2.786928
53.150084	2.712994
53.267786	2.630621
53.389374	2.540673
53.515488	2.446457
53.646604	2.349698
53.783312	2.250586
53.926232	2.151569
54.075824	2.051961
54.232706	1.956501
54.397328	1.864159
54.569842	1.779556
54.750380	1.702133
54.938932	1.631945
55.135614	1.565115
55.341082	1.496666
55.556688	1.423210
55.784862	1.339070
56.030402	1.234806
56.302486	1.099097
56.621514	0.917355
57.060674	0.640417
57.968746	0.227500
58.880516	0.603213
59.348226	0.857478
59.691004	1.017322
59.987242	1.125648
60.259884	1.192111
60.520372	1.226964
60.775040	1.243840
61.026996	1.251471
61.277590	1.255633
61.526784	1.263958
61.772876	1.285262
62.013138	1.325488
62.244622	1.387347
62.464802	1.466376
62.672554	1.560249
62.867922	1.661884
63.051464	1.767362
63.224410	1.871667
63.388078	1.973982
63.543600	2.071881
63.692312	2.160328
63.835348	2.237474
63.973946	2.301432
64.109138	2.351069
64.241996	2.383100
64.373408	2.401168
64.504086	2.408975
64.634424	2.412416
64.764608	2.413899
64.894652	2.416870
65.024326	2.426427
65.153230	2.444743
65.280878	2.476113
65.406632	2.517584
65.530062	2.570903
65.650864	2.631238
65.768780	2.697850
65.883782	2.766314
65.995994	2.835628
66.105498	2.903666
66.212606	2.966453
66.317538	3.023379
66.420704	3.070660
66.522436	3.108580
66.623156	3.133321
66.723222	3.147825
66.822968	3.153386
66.922572	3.155287
67.022116	3.156238
67.121606	3.158586
67.220910	3.166864
67.319830	3.181940
67.418142	3.208522
67.515522	3.241562
67.611762	3.284467
67.706758	3.330993
67.800324	3.383805
67.892410	3.438771
67.983054	3.495086
68.072236	3.550223
68.160126	3.601918
68.246788	3.649281
68.332450	3.688441
68.417286	3.720150
68.501540	3.740615
68.585392	3.753755
68.669058	3.758246
68.752630	3.760225
68.836162	3.761305
68.919658	3.763558
69.003046	3.769881
69.086216	3.781862
69.169040	3.804394
69.251300	3.831584
69.332874	3.867909
69.413684	3.908426
69.493578	3.955470
69.572534	4.002233
69.650648	4.044900
69.728002	4.079037
69.804870	4.100118
69.881444	4.107838
69.958076	4.096590
70.035050	4.070159
70.112704	4.025825
70.191326	3.969063
70.271188	3.901727
70.352450	3.831865
70.435214	3.761035
70.519560	3.689481
70.605498	3.621850
70.692968	3.559556
70.781882	3.507416
70.872038	3.460437
70.963286	3.422512
71.055544	3.388623
71.148602	3.362150
71.242360	3.338001
71.336802	3.315875
71.431860	3.293419
71.527658	3.267659
71.624264	3.237420
71.721946	3.198005
71.820984	3.149466
71.921806	3.087500
72.024862	3.013634
72.130692	2.928569
72.239748	2.836960
72.352456	2.741451
72.469190	2.644616
72.590156	2.551361
72.715448	2.463956
72.844992	2.387083
72.978496	2.318827
73.115596	2.262026
73.256024	2.212514
73.399312	2.171618
73.545222	2.134060
73.693658	2.099350
73.844568	2.064772
73.998378	2.023935
74.155722	1.973164
74.317906	1.907556
74.486820	1.822037
74.665532	1.708632
74.858618	1.565271
75.073092	1.392007
75.321142	1.184175
75.630836	0.923905
76.599708	0.300752
77.135070	0.271769
78.189912	0.714541
78.588854	0.925642
78.905076	1.097622
79.176068	1.244609
79.417908	1.370761
79.639838	1.474026
79.847976	1.553982
80.046652	1.615497
80.238692	1.660689
80.426278	1.692960
80.610620	1.716380
80.792456	1.739319
80.971848	1.763137
81.148800	1.787189
81.323126	1.817021
81.494280	1.852136
81.661842	1.896364
81.825270	1.948202
81.984006	2.009719
82.137816	2.076070
82.286628	2.147833
82.430498	2.221683
82.569752	2.293401
82.704822	2.361816
82.836214	2.423470
82.964552	2.476503
83.090478	2.516697
83.214576	2.548339
83.337232	2.575034
83.458800	2.596186
83.579438	2.612030
83.699388	2.626881
83.818628	2.641948
83.937148	2.658267
84.054848	2.680540
84.171450	2.705890
84.286830	2.738296
84.400780	2.775700
84.513020	2.820861
84.623370	2.871972
84.731708	2.928569
84.837946	2.986191
84.942152	3.044297
85.044410	3.102317
85.144902	3.153133
85.243994	3.192221
85.342172	3.212525
85.440040	3.212985
85.538228	3.191119
85.637422	3.149403
85.738188	3.089929
85.841144	3.017918
85.946696	2.937825
86.055220	2.853814
86.166888	2.775111
86.281650	2.699844
86.399546	2.629960
86.520582	2.562975
86.644590	2.502982
86.771468	2.448668
86.901066	2.399884
87.033258	2.353464
87.168114	2.306975
87.305822	2.258027
87.446772	2.202833
87.591704	2.137807
87.741728	2.057255
87.898164	1.965535
88.062706	1.862082
88.237714	1.741421
88.426520	1.601954
88.634090	1.445593
88.867776	1.270480
89.141200	1.069267
89.485700	0.827837
90.620370	0.257584
91.236368	0.228547
92.481294	0.628246
92.928946	0.847339
93.270084	1.038454
93.553610	1.207320
93.800432	1.360126
94.021508	1.498751
94.224022	1.618810
94.412850	1.718934
94.591884	1.799309
94.763902	1.860362
94.931272	1.899919
95.095840	1.921840
95.259036	1.930911
95.421620	1.934335
95.583906	1.936887
95.745830	1.942324
95.906900	1.955965
96.066340	1.981327
96.223242	2.021409
96.376610	2.073467
96.525764	2.137545
96.670292	2.210988
96.809858	2.292799
96.944636	2.372732
97.075252	2.443564
97.202508	2.498920
97.327558	2.532725
97.451494	2.542729
97.575638	2.525558
97.701326	2.481315
97.830094	2.407646
97.963570	2.309044
98.103486	2.191585
98.251426	2.064664
98.409144	1.930247
98.578718	1.787576
98.762354	1.644658
98.962380	1.506687
99.181056	1.376841
99.420414	1.256084
99.682292	1.148965
99.968308	1.053780
100.280290	0.966721
100.622018	0.880126
101.000042	0.792035
101.427778	0.694440
101.952104	0.552617
103.051056	0.251076
103.944960	0.231621
105.128852	0.471915
105.749206	0.579833
106.270064	0.638626
106.745890	0.685755
107.190292	0.731191
107.607140	0.777953
107.997904	0.831620
108.361974	0.895663
108.698820	0.972720
109.008762	1.060088
109.293076	1.156256
109.553868	1.259489
109.793726	1.369100
110.015320	1.475480
110.221644	1.577437
110.415436	1.673178
110.599250	1.753610
110.775988	1.810403
110.948636	1.836866
111.120292	1.832025
111.294126	1.791735
