#Creator: wheelEventBuffer
#Creation time: Wed Apr  5 15:17:47 2017
#Time	Angular velocity
#[s]	[rad/s]
0.733178	0.666798
1.161734	0.883990
1.494702	1.034637
1.783230	1.161789
2.042090	1.278172
2.278452	1.389987
2.496164	1.503600
2.697650	1.622455
2.884374	1.750015
3.057924	1.879595
3.219832	2.009976
3.371622	2.138884
3.514634	2.261505
3.650234	2.380283
3.779314	2.493882
3.902786	2.600742
4.021362	2.703794
4.135676	2.797650
4.246388	2.883253
4.353992	2.959523
4.459058	3.025417
4.561990	3.081201
4.663174	3.131259
4.762802	3.176149
4.861048	3.220099
4.957958	3.264264
5.053508	3.310424
5.147692	3.361502
5.240316	3.419904
5.331366	3.481606
5.420750	3.547978
5.508430	3.619597
5.594384	3.689827
5.678726	3.762296
5.761450	3.834484
5.842676	3.903084
5.922492	3.970969
6.000986	4.034614
6.078304	4.095201
6.154528	4.149399
6.229818	4.198531
6.304284	4.240010
6.378074	4.277418
6.451238	4.310401
6.523838	4.344257
6.595874	4.378526
6.667322	4.414705
6.738174	4.453759
6.808330	4.499431
6.877768	4.549604
6.946428	4.601313
7.014278	4.660010
7.081266	4.717389
7.147452	4.778233
7.212796	4.838281
7.277370	4.893294
7.341212	4.949884
7.404356	5.000784
7.466882	5.051117
7.528806	5.095852
7.590222	5.137015
7.651176	5.171686
7.711750	5.203208
7.771972	5.229886
7.831890	5.257016
7.891488	5.285673
7.950758	5.313925
8.009704	5.346482
8.068238	5.384603
8.126366	5.424957
8.184052	5.467062
8.241262	5.516018
8.297952	5.564280
8.354164	5.616004
8.409854	5.667062
8.465074	5.712610
8.519840	5.760374
8.574172	5.804650
8.628108	5.846999
8.681662	5.885778
8.734888	5.920607
8.787810	5.951564
8.840490	5.978975
8.892936	6.000215
8.945192	6.024147
8.997238	6.048270
9.049070	6.072823
9.100696	6.099469
9.152044	6.132809
9.203134	6.166757
9.253928	6.202552
9.304412	6.243973
9.354542	6.286203
9.404352	6.330793
9.453800	6.375761
9.502926	6.415603
9.551738	6.457273
9.600244	6.495188
9.648474	6.535182
9.696420	6.569071
9.744134	6.601371
9.791624	6.629231
9.838932	6.654225
9.886076	6.673449
9.933078	6.694210
9.979934	6.715962
10.026632	6.737278
10.073188	6.760766
10.119538	6.791458
10.165692	6.822134
10.211634	6.854284
10.257344	6.892783
10.302796	6.927437
10.348020	6.967382
10.392982	7.008104
10.437702	7.042351
10.482186	7.082359
10.526432	7.117982
10.570464	7.153966
10.614274	7.187026
10.657900	7.217738
10.701346	7.243700
10.744650	7.268167
10.787820	7.286035
10.830886	7.303991
10.873838	7.324767
10.916666	7.344631
10.959384	7.365640
11.001942	7.394070
11.044352	7.422020
11.086600	7.450535
11.128670	7.485686
11.170538	7.516491
11.212246	7.551905
11.253740	7.589488
11.295046	7.622265
11.336172	7.657192
11.377108	7.689428
11.417878	7.724975
11.458466	7.754721
11.498908	7.783155
11.539206	7.807915
11.579392	7.830881
11.619466	7.846527
11.659462	7.863811
11.699364	7.883149
11.739172	7.899403
11.778898	7.918518
11.818496	7.944951
11.857978	7.969944
11.897334	7.995502
11.936550	8.027373
11.975612	8.053714
12.014550	8.085219
12.053324	8.118650
12.091952	8.148129
12.130426	8.182509
12.168748	8.212885
12.206930	8.245217
12.244964	8.273445
12.282876	8.301867
12.320662	8.325628
12.358354	8.347308
12.395956	8.361526
12.433494	8.377134
12.470956	8.395042
12.508342	8.411225
12.545658	8.427471
12.582872	8.452412
12.619992	8.475215
12.657006	8.499520
12.693912	8.528130
12.730686	8.552741
12.767362	8.581242
12.803898	8.614656
12.840316	8.640244
12.876604	8.673641
12.912762	8.702473
12.948804	8.733439
12.984716	8.761204
13.020524	8.787180
13.056228	8.810345
13.091850	8.832141
13.127388	8.845570
13.162878	8.860039
13.198302	8.877063
13.233660	8.892139
13.268968	8.905751
13.304188	8.929038
13.339336	8.948877
13.374398	8.970853
13.409370	8.998089
13.444230	9.020307
13.479008	9.048366
13.513672	9.078698
13.548244	9.097100
13.582752	9.113462
13.617220	9.116636
13.651690	9.115578
13.686190	9.098681
13.720768	9.075026
13.755446	9.043157
13.790262	9.007376
13.825220	8.965221
13.860342	8.924979
13.895622	8.885097
13.931060	8.844076
13.966668	8.802938
14.002408	8.773438
14.038292	8.737811
14.074314	8.704402
14.110464	8.678433
14.146726	8.644048
14.183132	8.617019
14.219640	8.592508
14.256268	8.562531
14.293010	8.538329
14.329860	8.510572
14.366838	8.484370
14.403926	8.456053
14.441150	8.425211
14.478514	8.390110
14.516048	8.353078
14.553754	8.309333
14.591664	8.266044
14.629768	8.224065
14.668064	8.181657
14.706570	8.138419
14.745242	8.104408
14.784098	8.067363
14.823124	8.032299
14.862312	8.002834
14.901642	7.968327
14.941148	7.938527
14.980784	7.912534
15.020570	7.881172
15.060502	7.853982
15.100576	7.823080
15.140812	7.795902
15.181192	7.763536
15.221754	7.728395
15.262504	7.690181
15.303472	7.649734
15.344670	7.601240
15.386128	7.554811
15.427840	7.509305
15.469802	7.462924
15.512032	7.417814
15.554484	7.378788
15.597176	7.339827
15.640086	7.302633
15.683206	7.270522
15.726514	7.233693
15.770046	7.201524
15.813756	7.172586
15.857664	7.138361
15.901768	7.108319
15.946066	7.074384
15.990584	7.042666
16.035306	7.005603
16.080282	6.967073
16.125518	6.922552
16.171064	6.875887
16.216928	6.822727
16.263158	6.770090
16.309738	6.719122
16.356674	6.666934
16.403978	6.617223
16.451598	6.574020
16.499548	6.530020
16.547808	6.489285
16.596364	6.452764
16.645186	6.412984
16.694316	6.377573
16.743704	6.344345
16.793374	6.306646
16.843328	6.271395
16.893576	6.232824
16.944140	6.195458
16.995030	6.151542
17.046300	6.105871
17.097974	6.053865
17.150116	5.999069
17.202754	5.937841
17.255938	5.876969
17.309670	5.817764
17.363944	5.758051
17.418784	5.700999
17.474120	5.650550
17.529968	5.600786
17.586292	5.553853
17.643084	5.511759
17.700302	5.466301
17.758004	5.424208
17.816136	5.384603
17.874724	5.340483
17.933790	5.297974
17.993348	5.251743
18.053450	5.205104
18.114114	5.152855
18.175440	5.096017
18.237484	5.031862
18.300364	4.963806
18.364134	4.889943
18.428880	4.815882
18.494622	4.742743
18.561374	4.669986
18.629172	4.599158
18.697944	4.535286
18.767700	4.472527
18.838406	4.413713
18.910030	4.360053
18.982532	4.304495
19.055986	4.251140
19.130350	4.198755
19.205692	4.142286
19.282068	4.085934
19.359554	4.024072
19.438292	3.959359
19.518380	3.888110
19.600052	3.809284
19.683536	3.720767
19.769124	3.625277
19.857076	3.522360
19.947668	3.417003
20.041110	3.310843
20.137574	3.205118
20.237252	3.101888
20.340174	3.003894
20.446538	2.906890
20.556486	2.810363
20.670154	2.719899
20.787634	2.629740
20.909240	2.541125
21.035218	2.450540
21.166152	2.353641
21.302830	2.250489
21.446400	2.134930
21.598648	2.005050
21.762286	1.852813
21.942064	1.669994
22.146728	1.444570
22.396182	1.156051
22.783572	0.716398
23.409148	0.361927
24.036502	0.611671
24.489156	0.995063
24.777778	1.255482
25.012282	1.466253
25.216194	1.642079
25.400112	1.792799
25.569920	1.921604
25.729164	2.033946
25.880248	2.132090
26.024738	2.222311
26.163674	2.304302
26.297856	2.382521
26.427694	2.458249
26.553710	2.530971
26.676120	2.603976
26.795140	2.677479
26.910880	2.751246
27.023498	2.830162
27.132916	2.913144
27.239232	2.998848
27.342530	3.086286
27.442932	3.174095
27.540652	3.258981
27.635890	3.340982
27.728910	3.417375
27.819936	3.487713
27.909226	3.552150
27.996942	3.612936
28.083276	3.666744
28.168358	3.719710
28.252284	3.767711
28.335162	3.815576
28.416958	3.864578
28.497796	3.909496
28.577670	3.957463
28.656564	4.007236
28.734464	4.056599
28.811402	4.111494
28.887282	4.168559
28.962126	4.226889
29.035920	4.288044
29.108654	4.351236
29.180370	4.411854
29.251106	4.471254
29.320958	4.526138
29.389988	4.577179
29.458296	4.623253
29.525926	4.668043
29.592948	4.707493
29.659404	4.748334
29.725314	4.784783
29.790734	4.821500
29.855614	4.860588
29.920030	4.895124
29.983962	4.932786
30.047406	4.971504
30.110348	5.008757
30.172810	5.051767
30.234720	5.096348
30.296094	5.141555
30.356914	5.189284
30.417166	5.238956
30.476880	5.285140
30.536064	5.330696
30.594778	5.372815
30.653034	5.412806
30.710890	5.449045
30.768356	5.484816
30.825472	5.516405
30.882246	5.551302
30.938690	5.580688
30.994838	5.611390
31.050642	5.645270
31.106158	5.674022
31.161364	5.707213
31.216252	5.741005
31.270806	5.773501
31.325044	5.812167
31.378910	5.852009
31.432410	5.892180
31.485538	5.934251
31.538278	5.979430
31.590644	6.020453
31.642648	6.061340
31.694324	6.099469
31.745682	6.134246
31.796776	6.165547
31.847592	6.198391
31.898166	6.225660
31.948504	6.257405
31.998604	6.283688
32.048502	6.310446
32.098150	6.341783
32.147598	6.366459
32.196830	6.396011
32.245836	6.426102
32.294600	6.455151
32.343146	6.489821
32.391414	6.526222
32.439422	6.561936
32.487160	6.600262
32.534610	6.640722
32.581798	6.676285
32.628724	6.712805
32.675416	6.745379
32.721880	6.776808
32.768152	6.804403
32.814222	6.833709
32.860110	6.858175
32.905822	6.887947
32.951354	6.911283
32.996734	6.936921
33.041914	6.966146
33.086942	6.989705
33.131796	7.018123
33.176476	7.046142
33.220968	7.072473
33.265294	7.103818
33.309416	7.136415
33.353342	7.167350
33.397074	7.200863
33.440588	7.237692
33.483904	7.269513
33.527022	7.301614
33.569966	7.331263
33.612734	7.359083
33.655358	7.384338
33.697826	7.410465
33.740154	7.432907
33.782344	7.460798
33.824388	7.482833
33.866312	7.506792
33.908076	7.533795
33.949720	7.556265
33.991224	7.582161
34.032590	7.608236
34.073806	7.632635
34.114888	7.663543
34.155796	7.694701
34.196546	7.724975
34.237126	7.758168
34.277528	7.792808
34.317770	7.823080
34.357854	7.851626
34.397822	7.872087
34.437704	7.883941
34.477572	7.881172
34.517468	7.869721
34.557462	7.842610
34.597604	7.812964
34.637926	7.770449
34.678476	7.727255
34.719220	7.689428
34.760192	7.647499
34.801378	7.608973
34.842772	7.570468
34.884372	7.530545
34.926192	7.495688
34.968196	7.461861
35.010396	7.427635
35.052782	7.395811
35.095346	7.365294
35.138106	7.330920
35.181060	7.296188
35.224234	7.258763
35.267630	7.219397
35.311278	7.177502
35.355172	7.137064
35.399332	7.091311
35.443762	7.051202
35.488466	7.004354
35.533468	6.959665
35.578734	6.917979
35.624306	6.871074
35.670174	6.827471
35.716334	6.785590
35.762776	6.740458
35.809524	6.701635
35.856534	6.663540
35.903816	6.625317
35.951364	6.589464
35.999162	6.554817
36.047234	6.517827
36.095572	6.479381
36.144220	6.438481
36.193176	6.395751
36.242484	6.349217
36.292142	6.303356
36.342186	6.252921
36.392620	6.206228
36.443456	6.153711
36.494732	6.102550
36.546404	6.054098
36.598536	6.000444
36.651118	5.949535
36.704148	5.899705
36.757626	5.847217
36.811576	5.800577
36.865942	5.755941
36.920730	5.711987
36.975936	5.670131
37.031532	5.630498
37.087552	5.587636
37.143994	5.543857
37.200916	5.496523
37.258328	5.447534
37.316298	5.394033
37.374828	5.340846
37.433984	5.281941
37.493790	5.225363
37.554276	5.163187
37.615506	5.101313
37.677448	5.040419
37.740204	4.974338
37.803766	4.911041
37.868152	4.849035
37.933354	4.785657
37.999418	4.726901
38.066278	4.670124
38.133956	4.614425
38.202434	4.561362
38.271694	4.510283
38.341772	4.457298
38.412686	4.403690
38.484516	4.345819
38.557332	4.284302
38.631264	4.217469
38.706384	4.148303
38.782840	4.072163
38.860736	3.996327
38.940174	3.915050
39.021320	3.831958
39.104226	3.747486
39.189122	3.657012
39.276126	3.567316
39.365356	3.477136
39.456906	3.386213
39.550916	3.299923
39.647348	3.216670
39.746280	3.135823
39.847776	3.056857
39.951904	2.978942
40.058862	2.898630
40.168880	2.815501
40.282376	2.725799
40.399860	2.627760
40.522072	2.520574
40.649888	2.403667
40.784576	2.272137
40.927778	2.128421
41.081710	1.969255
41.249684	1.793269
41.436746	1.594636
41.652428	1.363527
41.917282	1.085764
42.330550	0.670994
43.026578	0.323300
43.722206	0.546761
44.226066	0.907959
44.540644	1.162872
44.791962	1.381345
45.006700	1.574370
45.197168	1.747776
45.369998	1.904573
45.529580	2.046320
45.678788	2.176191
45.819732	2.290625
45.954106	2.393449
46.083086	2.483708
46.207766	2.561889
46.328934	2.627321
46.447260	2.685902
46.563082	2.740016
46.676650	2.793719
46.788018	2.848897
46.897148	2.907859
47.004014	2.972403
47.108404	3.045359
47.210298	3.122421
47.309654	3.202961
47.406510	3.286872
47.500940	3.367556
47.593172	3.448207
47.683262	3.528135
47.771396	3.603488
47.857718	3.677991
47.942378	3.745520
48.025582	3.809561
48.107452	3.866576
48.188210	3.917002
48.267996	3.959359
48.346978	3.997955
48.425224	4.031818
48.502802	4.067734
48.579682	4.105155
48.655828	4.145019
48.731230	4.188679
48.805758	4.239552
48.879408	4.292028
48.952132	4.347864
49.023902	4.408016
49.094692	4.466423
49.164576	4.526530
49.233520	4.587472
49.301596	4.643892
49.368836	4.701716
49.435286	4.754514
49.501024	4.806010
49.566084	4.852030
49.630572	4.893751
49.694542	4.929071
49.758084	4.961141
49.821236	4.987922
49.884050	5.015474
49.946506	5.044628
50.008588	5.074943
50.070292	5.108779
50.131520	5.149983
50.192280	5.191685
50.252530	5.236337
50.312252	5.286029
50.371412	5.331963
50.430072	5.381282
50.488170	5.433213
50.545750	5.480414
50.602822	5.529415
50.659410	5.574351
50.715550	5.619621
50.771260	5.659100
50.826606	5.696038
50.881612	5.726563
50.936348	5.754887
50.990824	5.778173
51.045084	5.802077
51.099110	5.828342
51.152886	5.854190
51.206430	5.881811
51.259666	5.917262
51.312604	5.952241
51.365212	5.990833
51.417468	6.034330
51.469348	6.073527
51.520902	6.116332
51.572074	6.161919
51.622894	6.202552
51.673368	6.246456
51.723500	6.285951
51.773326	6.327478
51.822834	6.363364
51.872082	6.397053
51.921084	6.425050
51.969890	6.451174
52.018512	6.470840
52.066984	6.491967
52.115290	6.515124
52.163422	6.537902
52.211390	6.562210
52.259136	6.593613
52.306672	6.625037
52.353974	6.657609
52.401030	6.697064
52.447802	6.731792
52.494346	6.770966
52.540608	6.810598
52.586660	6.836981
52.632550	6.857576
52.678354	6.862369
52.724168	6.856977
52.770066	6.835196
52.816154	6.801751
52.862496	6.756985
52.909174	6.707645
52.956204	6.651407
53.003630	6.598044
53.051440	6.544439
53.099640	6.490626
53.148240	6.439537
53.197176	6.396011
53.246468	6.351785
53.296086	6.310954
53.346018	6.274652
53.396236	6.233566
53.446786	6.197658
53.497614	6.163853
53.548748	6.124679
53.600194	6.089066
53.651950	6.050134
53.704056	6.011467
53.756506	5.967391
53.809374	5.920384
53.862680	5.866872
53.916500	5.810447
53.970858	5.748568
54.025804	5.687582
54.081336	5.627674
54.137456	5.567830
54.194182	5.510213
54.251448	5.458703
54.309270	5.408333
54.367616	5.360348
54.426466	5.317703
54.485784	5.271836
54.545622	5.230234
54.605918	5.189970
54.666720	5.145597
54.728032	5.102639
54.789888	5.055506
54.852340	5.007799
54.915412	4.955037
54.979206	4.896955
55.043798	4.832030
55.109304	4.763164
55.175790	4.687965
55.243362	4.612257
55.312044	4.537513
55.381848	4.463250
55.452818	4.392116
55.524856	4.327620
55.597988	4.264760
55.672170	4.205275
55.747380	4.150276
55.823580	4.093707
55.900850	4.039595
55.979138	3.986692
56.058516	3.930135
56.139052	3.873441
56.220830	3.811317
56.304008	3.745967
56.388736	3.672487
56.475290	3.591377
56.563944	3.499914
56.655050	3.401833
56.748892	3.297222
56.845814	3.190017
56.946078	3.080899
57.049952	2.971223
57.157716	2.863490
57.269450	2.761209
57.385370	2.662051
57.505574	2.567332
57.630212	2.477284
57.759492	2.385380
57.893986	2.291728
58.034202	2.194493
58.181038	2.091189
58.335726	1.979904
58.500236	1.852048
58.677752	1.705404
58.873530	1.530886
59.098372	1.311456
59.381586	1.009795
60.048230	0.417444
60.540492	0.387372
61.249424	0.880481
61.572708	1.158772
61.826090	1.367539
62.044452	1.536772
62.240860	1.680643
62.421780	1.805534
62.591234	1.912410
62.751784	2.008126
62.905068	2.095904
63.052260	2.178092
63.194050	2.256048
63.331196	2.328658
63.464048	2.402674
63.592808	2.479122
63.717580	2.557259
63.838536	2.639994
63.955686	2.725137
64.069214	2.811923
64.179280	2.899486
64.286044	2.987782
64.389752	3.074146
64.490616	3.158141
64.588938	3.236153
64.684986	3.308193
64.779092	3.372327
64.871450	3.432459
64.962294	3.485933
65.051758	3.538706
65.139944	3.587276
65.226956	3.635514
65.312784	3.684288
65.397552	3.729425
65.481264	3.776770
65.563922	3.825426
65.645508	3.874109
65.726050	3.928169
65.805440	3.985680
65.883678	4.045525
65.960746	4.108053
66.036628	4.172545
66.111384	4.234523
66.185060	4.294492
66.257762	4.350272
66.329562	4.401716
66.400574	4.448714
66.470836	4.494281
66.540434	4.534501
66.609404	4.576646
66.677780	4.612934
66.745622	4.650491
66.812878	4.689364
66.879634	4.724484
66.945858	4.763020
67.011544	4.803218
67.076668	4.842607
67.141248	4.887813
67.205216	4.934180
67.268582	4.981594
67.331336	5.031378
67.393454	5.083319
67.454968	5.132483
67.515888	5.181410
67.576268	5.226580
67.636130	5.269714
67.695546	5.307641
67.754522	5.346118
67.813108	5.379071
67.871320	5.415419
67.929166	5.446778
67.986686	5.478503
68.043834	5.513307
68.100672	5.543074
68.157180	5.575934
68.213354	5.610187
68.269176	5.642634
68.324664	5.682232
68.379746	5.723642
68.434434	5.765660
68.488716	5.810017
68.542566	5.857028
68.596018	5.900148
68.649088	5.940086
68.701866	5.968978
68.754442	5.984442
68.806970	5.983074
68.859560	5.967164
68.912374	5.933355
68.965532	5.890413
69.019122	5.835487
69.073242	5.777110
69.127860	5.723434
69.183036	5.666245
69.238742	5.612994
69.294982	5.560341
69.351752	5.505578
69.409078	5.456048
69.466908	5.408520
69.525252	5.360897
69.584100	5.316263
69.643426	5.273960
69.703258	5.229190
69.763600	5.183633
69.824502	5.134832
69.885998	5.083154
69.948160	5.027031
70.011014	4.970245
70.074630	4.907665
70.139052	4.847389
70.204310	4.781578
70.270488	4.715407
70.337572	4.649940
70.405668	4.579314
70.474798	4.510542
70.544988	4.442800
70.616242	4.373893
70.688608	4.310046
70.762020	4.248726
70.836500	4.188008
70.912054	4.129111
70.988674	4.071530
71.066428	4.011329
71.145370	3.949205
71.225626	3.882440
71.307302	3.811872
71.390596	3.735633
71.475632	3.655395
71.562640	3.569099
71.651800	3.481452
71.743300	3.388331
71.837410	3.292729
71.934288	3.195143
72.034304	3.091814
72.137720	2.987838
72.244826	2.882936
72.355922	2.775602
72.471400	2.670242
72.591466	2.566032
72.716484	2.463685
72.846784	2.362633
72.982774	2.261994
73.125054	2.159526
73.274490	2.052497
73.432706	1.930911
73.602288	1.789938
73.787486	1.625124
73.995124	1.432803
74.239456	1.195386
74.563680	0.870706
75.023762	0.476158
75.778040	0.438907
76.275772	0.795127
76.630242	1.095983
76.896160	1.320929
77.121340	1.500985
77.322030	1.650724
77.506096	1.777160
77.678346	1.882208
77.841926	1.966617
77.998988	2.038777
78.150726	2.104722
78.297794	2.169398
78.440422	2.237219
78.578630	2.309349
78.712454	2.387664
78.841720	2.473383
78.966528	2.563394
79.086940	2.657232
79.203114	2.755058
79.315248	2.850396
79.423752	2.944985
79.528826	3.037997
79.630830	3.125465
79.730070	3.209834
79.826828	3.286597
79.921440	3.358555
80.014126	3.422587
80.105204	3.479755
80.194906	3.526709
80.283490	3.568775
80.371078	3.605307
80.457800	3.640569
80.543664	3.677216
80.628646	3.715399
80.712734	3.757257
80.795756	3.807899
80.877674	3.862487
80.958388	3.921794
81.037852	3.986590
81.116024	4.049801
81.192998	4.115264
81.268736	4.181542
81.343326	4.243675
81.416828	4.306501
81.489296	4.364414
81.560840	4.420793
81.631516	4.470364
81.701462	4.515469
81.770768	4.551713
81.839530	4.586401
81.907808	4.617273
81.975640	4.645814
82.043026	4.677773
82.109938	4.711447
82.176368	4.748047
82.242212	4.791497
82.307476	4.836196
82.372116	4.883861
82.436102	4.937127
82.499384	4.988872
82.562026	5.043980
82.624004	5.095687
82.685452	5.133825
82.746514	5.159964
82.807394	5.164885
82.868322	5.153869
82.929490	5.121605
82.991154	5.073304
83.053474	5.010994
83.116632	4.940854
83.180698	4.866913
83.245746	4.794129
83.311794	4.720225
83.378866	4.647326
83.446982	4.578113
83.516064	4.515340
83.586100	4.456286
83.657040	4.400729
83.728864	4.348345
83.801538	4.294492
83.875168	4.243102
83.949644	4.193151
84.025052	4.139993
84.101446	4.086253
84.178902	4.026857
84.257536	3.966457
84.337470	3.897371
84.418916	3.820402
84.502114	3.735189
84.587328	3.643102
84.674768	3.544935
84.764690	3.446165
84.857226	3.346891
84.952536	3.247393
85.050790	3.150603
85.151974	3.059476
85.256212	2.970605
85.363482	2.887069
85.473834	2.809257
85.587264	2.730870
85.704072	2.651670
85.824466	2.570777
85.948876	2.483590
86.077886	2.392246
86.212272	2.290058
