#Creator: pendulumviewEventBuffer
#Creation time: Wed Feb 22 15:33:09 2017
#Time A	Pos A	Time B	Pos B
#[s]	[au]	[s]	[au]
2.002	388	2.028	494
2.054	423	2.078	450
2.104	458	2.129	406
2.155	492	2.180	365
2.205	521	2.231	330
2.256	546	2.281	303
2.307	563	2.332	286
2.358	572	2.382	281
2.408	575	2.434	284
2.459	568	2.484	297
2.509	554	2.535	321
2.560	532	2.585	353
2.611	506	2.636	392
2.662	475	2.686	434
2.712	440	2.738	479
2.763	405	2.788	523
2.813	371	2.839	565
2.865	340	2.889	602
2.915	313	2.940	633
2.966	292	2.991	654
3.016	280	3.042	666
3.067	273	3.092	667
3.118	275	3.143	660
3.169	285	3.193	642
3.219	301	3.245	617
3.270	326	3.295	585
3.320	355	3.346	544
3.371	387	3.396	501
3.422	421	3.447	456
3.473	455	3.497	413
3.523	489	3.549	372
3.574	518	3.599	337
3.624	542	3.650	310
3.676	560	3.700	291
3.726	570	3.751	284
3.777	572	3.802	286
3.827	567	3.853	297
3.878	553	3.903	320
3.929	532	3.954	351
3.980	506	4.004	388
4.030	475	4.056	429
4.081	442	4.106	473
4.131	408	4.157	517
4.183	373	4.207	557
4.233	342	4.258	594
4.284	315	4.308	625
4.334	295	4.360	648
4.385	281	4.410	661
4.435	276	4.461	664
4.487	276	4.512	657
4.537	285	4.562	642
4.588	301	4.614	618
4.638	325	4.664	586
4.689	353	4.715	549
4.740	385	4.765	506
4.791	418	4.816	464
4.841	453	4.867	420
4.892	486	4.918	380
4.942	515	4.968	345
4.994	540	5.019	318
5.044	558	5.069	298
5.095	568	5.120	289
5.145	571	5.171	290
5.196	566	5.222	299
5.246	553	5.272	319
5.298	533	5.323	349
5.348	507	5.373	383
5.399	477	5.425	423
5.449	444	5.475	465
5.500	410	5.526	508
5.551	376	5.576	549
5.602	345	5.627	586
5.652	317	5.678	617
5.703	296	5.729	641
5.753	283	5.779	656
5.805	276	5.830	660
5.855	276	5.880	656
5.906	286	5.931	642
5.956	301	5.982	620
6.007	324	6.033	591
6.057	351	6.083	554
6.109	383	6.134	515
6.159	417	6.184	472
6.210	451	6.236	430
6.260	484	6.286	390
6.311	513	6.337	354
6.362	538	6.387	325
6.413	556	6.438	305
6.463	566	6.489	294
6.514	570	6.540	293
6.564	565	6.590	300
6.616	553	6.641	318
6.666	534	6.691	345
6.717	508	6.743	378
6.767	478	6.793	416
6.818	446	6.844	457
6.868	411	6.894	500
6.920	378	6.945	539
6.970	347	6.995	577
7.021	320	7.047	609
7.071	298	7.097	633
7.122	284	7.148	650
7.173	277	7.198	656
7.224	277	7.249	653
7.274	285	7.300	642
7.325	301	7.351	621
7.375	323	7.401	593
7.427	350	7.452	560
7.477	381	7.502	521
7.528	415	7.554	480
7.578	449	7.604	438
7.629	482	7.655	399
7.679	511	7.705	363
7.731	535	7.756	334
7.781	554	7.806	311
7.832	565	7.858	299
7.882	570	7.908	297
7.933	566	7.959	303
7.984	554	8.009	318
8.035	535	8.060	343
8.085	510	8.111	374
8.136	480	8.162	411
8.186	448	8.212	451
8.238	414	8.263	491
8.288	380	8.313	531
8.339	349	8.365	568
8.389	321	8.415	601
8.440	300	8.466	627
8.490	285	8.516	644
8.542	278	8.567	651
8.592	276	8.617	650
8.643	285	8.669	641
8.693	300	8.719	622
8.744	321	8.770	596
8.795	348	8.820	564
8.846	379	8.871	526
8.896	412	8.922	486
8.947	446	8.973	447
8.997	479	9.023	407
9.049	509	9.074	372
9.099	534	9.124	342
9.150	553	9.176	319
9.200	565	9.226	305
9.251	569	9.277	301
9.301	567	9.327	304
9.353	555	9.378	319
9.403	537	9.428	342
9.454	513	9.480	371
9.504	483	9.530	406
9.555	450	9.581	444
9.606	417	9.631	484
9.657	383	9.682	524
9.707	352	9.733	561
9.758	324	9.784	594
9.808	302	9.834	620
9.860	286	9.885	638
9.910	279	9.935	647
9.961	277	9.987	647
10.011	284	10.037	639
10.062	298	10.088	622
10.112	319	10.138	598
10.164	346	10.189	567
10.214	377	10.239	531
10.265	410	10.291	492
10.315	443	10.341	452
10.366	476	10.392	414
10.418	507	10.442	379
10.468	532	10.493	349
10.519	552	10.544	325
10.569	565	10.595	312
10.620	570	10.645	306
10.671	567	10.696	309
10.722	556	10.746	321
10.772	539	10.798	342
10.823	515	10.848	369
10.873	486	10.899	404
10.925	453	10.949	440
10.975	420	11.000	479
11.026	386	11.050	517
11.076	355	11.102	554
11.127	326	11.152	586
11.177	303	11.203	613
11.229	287	11.253	632
11.279	278	11.304	642
11.330	277	11.355	643
11.380	283	11.406	636
11.431	296	11.456	621
11.482	316	11.507	598
11.533	343	11.557	569
11.583	373	11.609	535
11.634	406	11.659	498
11.684	440	11.710	459
11.736	473	11.760	422
11.786	504	11.811	387
11.837	530	11.861	356
11.887	551	11.913	332
11.938	564	11.963	317
11.988	570	12.014	311
12.040	568	12.064	312
12.090	558	12.115	323
12.141	541	12.166	342
12.191	518	12.217	368
12.242	489	12.267	400
12.293	457	12.318	436
12.344	424	12.368	473
12.394	390	12.420	511
12.445	357	12.470	547
12.495	329	12.521	578
12.547	304	12.571	605
12.597	287	12.622	625
12.648	278	12.672	636
12.698	276	12.724	639
12.749	281	12.774	634
12.799	294	12.825	620
12.851	313	12.875	599
12.901	339	12.926	571
12.952	369	12.977	539
13.002	402	13.028	502
13.053	437	13.078	465
13.104	470	13.129	428
13.155	501	13.179	394
13.205	528	13.231	364
13.256	550	13.281	339
13.306	563	13.332	324
13.358	570	13.382	316
13.408	570	13.433	316
13.459	560	13.483	325
13.509	544	13.535	342
13.560	521	13.586	368
13.610	493	13.636	398
13.662	461	13.687	432
13.712	427	13.737	469
13.763	393	13.789	505
13.813	361	13.839	541
13.864	331	13.890	573
13.915	307	13.940	599
13.966	289	13.991	619
14.016	279	14.042	631
14.067	275	14.093	634
14.117	280	14.143	629
14.169	291	14.194	618
14.219	310	14.244	598
14.270	335	14.296	572
14.320	365	14.346	541
14.371	398	14.397	506
14.421	433	14.447	469
14.473	466	14.498	434
14.523	497	14.548	400
14.574	525	14.600	370
14.624	547	14.650	346
14.675	562	14.701	329
14.726	570	14.751	321
14.777	571	14.802	320
14.827	562	14.853	328
14.878	546	14.904	344
14.928	525	14.954	367
14.980	497	15.005	396
15.030	465	15.055	430
15.081	431	15.107	464
15.131	397	15.157	500
15.182	364	15.208	535
15.232	335	15.258	566
15.284	309	15.309	594
15.334	290	15.359	613
15.385	279	15.411	625
15.435	275	15.461	630
15.486	278	15.512	628
15.537	289	15.562	615
15.588	307	15.613	597
15.638	332	15.664	573
15.689	361	15.715	543
15.739	394	15.765	509
15.791	428	15.816	474
15.841	461	15.866	439
15.892	493	15.918	405
15.942	521	15.968	376
15.993	544	16.019	352
16.043	561	16.069	335
16.095	569	16.120	326
16.145	571	16.170	324
16.196	563	16.222	331
16.246	549	16.272	345
16.297	528	16.323	368
16.348	501	16.373	395
16.399	470	16.424	427
16.449	436	16.475	461
16.500	402	16.526	496
16.550	368	16.576	530
16.602	339	16.627	560
16.652	312	16.677	588
16.703	292	16.729	607
16.753	280	16.779	620
16.804	274	16.830	625
16.855	277	16.880	623
16.906	287	16.931	613
16.956	304	16.981	595
17.007	327	17.033	573
17.057	356	17.083	544
17.108	388	17.134	511
17.159	422	17.184	477
17.210	456	17.235	443
17.260	488	17.286	410
17.311	518	17.337	381
17.361	542	17.387	357
17.413	559	17.438	340
17.463	568	17.488	331
17.514	571	17.540	328
17.564	565	17.590	334
17.615	552	17.641	347
17.666	531	17.691	369
17.717	505	17.742	394
17.767	474	17.792	426
17.818	441	17.844	459
17.868	407	17.894	493
17.919	373	17.945	526
17.970	342	17.995	556
18.021	315	18.046	582
18.072	295	18.097	603
18.122	281	18.148	615
18.173	275	18.198	621
18.224	275	18.249	620
18.275	284	18.299	611
18.325	300	18.351	594
18.376	323	18.401	572
18.426	351	18.452	544
18.478	383	18.502	513
18.528	417	18.553	479
18.579	451	18.603	447
18.629	483	18.655	415
18.680	513	18.705	386
18.730	538	18.756	362
18.782	556	18.806	345
18.832	568	18.857	336
18.883	571	18.908	333
18.933	566	18.959	338
18.984	554	19.009	351
19.035	535	19.060	370
19.086	509	19.110	395
19.136	480	19.162	424
19.187	446	19.212	457
19.237	412	19.263	490
19.289	379	19.313	522
19.339	347	19.364	552
19.390	319	19.415	578
19.440	298	19.466	597
19.491	282	19.516	611
19.541	275	19.567	617
19.593	275	19.617	617
19.643	283	19.668	607
19.694	297	19.719	592
19.744	319	19.770	571
19.795	346	19.820	544
19.846	377	19.871	514
19.897	410	19.921	482
19.947	445	19.973	449
19.998	478	20.023	418
20.048	508	20.074	390
20.100	534	20.124	366
20.150	554	20.175	349
20.201	565	20.226	340
20.251	570	20.277	336
20.302	567	20.327	341
20.352	556	20.378	353
20.404	538	20.428	371
20.454	514	20.479	395
20.505	484	20.530	424
20.555	452	20.581	455
20.606	418	20.631	488
20.657	384	20.682	519
20.708	352	20.732	549
20.758	324	20.784	574
20.809	300	20.834	594
20.859	285	20.885	607
20.911	277	20.935	614
20.961	274	20.986	613
21.012	281	21.037	605
21.062	294	21.088	591
21.113	315	21.139	570
21.163	341	21.189	544
21.215	371	21.240	514
21.265	405	21.290	484
21.316	438	21.342	451
21.366	472	21.392	421
21.417	502	21.443	393
21.468	529	21.493	370
21.519	549	21.544	353
21.569	562	21.595	344
21.620	568	21.646	340
21.670	567	21.696	343
21.722	557	21.747	355
21.772	541	21.797	373
21.823	517	21.849	395
21.873	489	21.899	424
21.924	457	21.950	454
21.975	423	22.000	486
22.026	390	22.051	517
22.076	357	22.101	546
22.127	328	22.153	571
22.177	304	22.203	591
22.228	287	22.254	604
22.279	278	22.304	610
22.330	274	22.355	611
22.380	280	22.406	602
22.431	292	22.457	590
22.481	311	22.507	570
22.533	337	22.558	544
22.583	366	22.608	515
22.634	399	22.660	485
22.684	433	22.710	453
22.735	466	22.761	424
22.786	497	22.811	397
22.837	524	22.862	373
22.887	546	22.912	357
22.938	560	22.964	346
22.988	566	23.014	343
23.039	567	23.065	345
23.090	559	23.115	357
23.141	543	23.166	374
23.191	521	23.217	396
23.242	493	23.268	424
23.292	462	23.318	454
23.344	429	23.369	484
23.394	395	23.419	515
23.445	363	23.471	543
23.495	333	23.521	568
23.546	309	23.572	588
23.597	291	23.622	602
23.648	280	23.673	608
23.698	275	23.723	609
23.749	279	23.775	602
23.799	290	23.825	587
23.850	308	23.876	568
23.901	332	23.926	544
23.952	361	23.977	516
24.002	393	24.028	486
24.053	427	24.079	455
24.103	459	24.129	425
24.155	491	24.180	399
24.205	518	24.230	376
24.256	542	24.282	359
24.306	557	24.332	348
24.357	564	24.383	344
24.408	566	24.433	348
24.459	558	24.484	357
24.509	545	24.535	375
24.560	524	24.586	396
24.610	497	24.636	423
24.661	467	24.687	453
24.712	435	24.737	483
24.763	401	24.788	514
24.814	369	24.839	541
24.864	340	24.890	566
24.915	314	24.940	585
24.966	295	24.991	600
25.017	282	25.041	606
25.067	277	25.093	607
25.118	279	25.143	600
25.168	289	25.194	587
25.220	306	25.244	568
25.270	329	25.295	544
25.321	356	25.346	516
25.371	387	25.397	487
25.422	420	25.447	456
25.472	453	25.498	427
25.524	484	25.548	401
25.574	513	25.599	378
25.625	535	25.650	361
25.675	552	25.701	350
25.726	562	25.751	346
25.777	564	25.802	349
25.828	559	25.852	359
25.878	546	25.904	375
25.929	527	25.954	397
25.979	502	26.005	423
26.031	472	26.055	452
26.081	440	26.106	482
26.132	408	26.157	512
26.182	375	26.208	540
26.233	345	26.258	564
26.283	320	26.309	583
26.335	299	26.359	597
26.385	286	26.410	604
26.436	280	26.461	605
26.486	280	26.512	600
26.537	289	26.562	587
26.588	304	26.613	568
26.639	325	26.663	544
26.689	352	26.715	520
26.740	380	26.765	495
