#Creator: pendulumdriveEventBuffer
#Creation time: Fri Apr  7 15:31:08 2017
#Time	Pos
#[s]	[au]
0.050	393
0.100	430
0.150	465
0.201	501
0.251	537
0.301	571
0.352	601
0.402	625
0.452	641
0.503	648
0.553	645
0.603	635
0.653	620
0.703	595
0.754	563
0.804	527
0.854	492
0.904	456
0.954	421
1.004	389
1.055	363
1.105	344
1.155	333
1.205	331
1.256	336
1.306	349
1.357	371
1.407	402
1.457	440
1.507	473
1.557	508
1.608	544
1.658	577
1.708	603
1.758	624
1.808	638
1.858	643
1.909	642
1.959	633
2.009	616
2.059	591
2.109	560
2.161	526
2.211	489
2.261	453
2.311	420
2.361	391
2.411	368
2.462	351
2.512	342
2.562	339
2.612	345
2.662	359
2.712	381
2.763	409
2.813	442
2.863	476
2.913	512
2.963	545
3.014	574
3.065	598
3.115	615
3.165	626
3.215	630
3.265	629
3.316	619
3.366	601
3.416	577
3.466	550
3.516	519
3.566	486
3.617	454
3.667	425
3.717	399
3.767	379
3.817	365
3.868	357
3.918	356
3.969	364
4.019	379
4.069	400
4.119	427
4.170	456
4.220	486
4.270	516
4.320	543
4.370	568
4.420	588
4.471	601
4.521	609
4.571	612
4.621	607
4.671	596
4.722	579
4.772	557
4.822	530
4.873	502
4.923	474
4.973	448
5.024	423
5.074	403
5.124	388
5.174	380
5.224	377
5.274	380
5.325	389
5.375	404
5.425	424
5.475	450
5.525	476
5.576	504
5.626	529
5.676	552
5.726	572
5.777	585
5.827	593
5.878	596
5.928	594
5.978	587
6.028	574
6.078	556
6.129	534
6.179	509
6.229	484
6.279	459
6.329	436
6.379	415
6.430	400
6.480	391
6.530	386
6.580	388
6.630	395
6.681	408
6.732	425
6.782	446
6.832	469
6.882	494
6.932	519
6.983	541
7.033	560
7.083	576
7.133	585
7.183	591
7.233	591
7.284	585
7.334	575
7.384	558
7.434	539
7.484	517
7.534	493
7.586	470
7.636	447
7.686	428
7.736	411
7.786	399
7.837	393
7.887	391
7.937	395
7.987	404
8.037	420
8.087	439
8.138	461
8.188	484
8.238	507
8.288	529
8.338	549
8.388	565
8.439	577
8.490	585
8.540	587
8.590	586
8.640	578
8.691	565
8.741	547
8.791	527
8.841	505
8.891	481
8.941	459
8.992	438
9.042	420
9.092	407
9.142	398
9.192	394
9.242	395
9.293	402
9.343	413
9.394	430
9.444	449
9.494	470
9.545	493
9.595	517
9.645	537
9.695	556
9.745	570
9.795	579
9.846	585
9.896	585
9.946	581
9.996	571
10.046	557
10.097	538
10.147	519
10.197	497
10.247	474
10.298	452
10.348	433
10.399	418
10.449	405
10.499	398
10.549	396
10.599	399
10.649	408
10.700	421
10.750	438
10.800	457
10.850	478
10.900	500
10.951	522
11.001	540
11.051	557
11.101	569
11.152	578
11.202	582
11.253	580
11.303	574
11.353	563
11.403	548
11.453	530
11.503	511
11.554	489
11.604	468
11.654	449
11.704	432
11.754	418
11.805	409
11.855	403
11.905	403
11.955	407
12.005	417
12.056	431
12.107	448
12.157	467
12.207	488
12.257	508
12.307	527
12.358	543
12.408	557
12.458	567
12.508	574
12.558	575
12.608	571
12.659	564
12.709	552
12.759	537
12.809	520
12.859	500
12.909	480
12.961	461
13.011	443
13.061	429
13.111	417
13.161	411
13.212	408
13.262	411
13.312	417
13.362	428
13.412	443
13.462	459
13.513	478
13.563	498
13.613	517
13.663	534
13.713	548
13.763	559
13.814	567
13.865	570
13.915	569
13.965	564
14.015	554
14.066	541
14.116	525
14.166	508
14.216	489
14.266	470
14.316	453
14.367	437
14.417	425
14.467	416
14.517	412
14.567	412
14.617	417
14.668	426
14.718	438
14.769	453
14.819	471
14.869	489
14.920	507
14.970	524
15.020	539
15.070	552
15.120	561
15.170	567
15.221	568
15.271	564
15.321	557
15.371	546
15.421	531
15.471	515
15.522	497
15.572	480
15.622	462
15.673	446
15.723	433
15.774	423
15.824	416
15.874	414
15.924	416
15.974	423
16.024	433
16.075	447
16.125	463
16.175	480
16.225	498
16.275	515
16.326	531
16.376	544
16.426	555
16.476	562
16.526	566
16.577	564
16.628	560
16.678	551
16.728	538
16.778	523
16.828	507
16.878	489
16.929	472
16.979	455
17.029	441
17.079	429
17.129	420
17.180	417
17.230	416
17.280	421
17.330	429
17.380	440
17.430	455
17.482	470
17.532	488
17.582	505
17.632	522
17.682	536
17.732	548
17.783	557
17.833	562
17.883	564
17.933	562
17.983	555
18.034	544
18.084	531
18.134	516
18.184	499
18.234	482
18.284	466
18.335	450
18.386	438
18.436	427
18.486	421
18.536	418
18.586	420
18.637	425
18.687	435
18.737	447
18.787	461
18.837	478
18.888	494
18.938	511
18.988	526
19.038	539
19.088	550
19.138	557
19.189	561
19.239	560
19.290	556
19.340	548
19.390	537
19.441	523
19.491	508
19.541	492
19.591	476
19.641	460
19.691	446
19.742	435
19.792	427
19.842	422
19.892	422
19.942	425
19.992	432
20.043	442
20.093	455
20.143	469
20.194	485
20.244	502
20.295	517
20.345	530
20.395	542
20.445	550
20.495	556
20.545	557
20.596	557
20.646	550
20.696	541
20.746	529
20.796	515
20.846	500
20.897	484
20.947	469
20.997	455
21.047	442
21.098	433
21.149	427
21.199	424
21.249	426
21.299	431
21.349	439
21.399	450
21.450	464
21.500	478
21.550	494
21.600	509
21.650	523
21.700	534
21.751	544
21.801	551
21.851	554
21.901	555
21.951	551
22.003	543
22.053	533
22.103	521
22.153	507
22.203	492
22.253	477
22.304	462
22.354	450
22.404	439
22.454	432
22.504	428
22.554	427
22.605	430
22.655	436
22.705	446
22.755	458
22.805	471
22.856	486
22.907	501
22.957	515
23.007	528
23.057	538
23.107	547
23.158	552
23.208	554
23.258	552
23.308	546
23.358	538
23.409	527
23.459	514
23.509	499
23.559	484
23.609	470
23.659	457
23.710	446
23.761	436
23.811	431
23.861	428
23.911	429
23.961	434
24.012	440
24.062	452
24.112	465
24.162	479
24.212	493
24.263	508
24.313	521
24.363	532
24.413	542
24.463	549
24.513	552
24.564	552
24.614	548
24.665	541
24.715	532
24.765	520
24.815	507
24.866	493
24.916	478
24.966	465
25.016	452
25.066	442
25.117	435
25.167	431
25.217	430
25.267	432
25.317	439
25.367	448
25.418	458
25.468	472
25.518	486
25.569	500
25.619	513
25.670	525
25.720	536
25.770	543
25.820	549
25.870	550
25.920	549
25.971	544
26.021	536
26.071	526
26.121	514
26.171	500
26.221	487
26.272	472
26.322	460
26.372	449
26.422	441
26.473	434
26.524	432
26.574	433
26.624	437
26.674	444
26.724	454
26.774	465
26.825	478
26.875	492
26.925	505
26.975	518
27.025	529
27.075	537
27.126	544
27.176	547
27.226	548
27.276	545
27.326	539
27.378	531
27.428	519
27.478	507
27.528	494
27.578	480
27.628	468
27.679	456
27.729	446
27.779	439
27.829	435
27.879	434
27.929	436
27.980	442
28.030	450
28.080	461
28.130	472
28.180	485
28.231	498
28.282	510
28.332	522
28.382	532
28.432	539
28.482	544
28.533	546
28.583	545
28.633	540
28.683	534
28.733	524
28.783	513
28.834	500
28.884	487
28.934	475
28.984	463
29.034	452
29.085	444
29.135	439
29.186	436
29.236	437
29.286	441
29.336	447
29.387	456
29.437	467
29.487	479
29.537	492
29.587	504
29.638	516
29.688	526
29.738	534
29.788	541
29.838	544
29.888	544
29.939	541
29.989	536
30.039	528
30.090	518
30.140	506
30.190	494
30.241	481
30.291	469
30.341	458
30.391	449
30.441	443
30.492	439
30.542	437
30.592	440
30.642	445
30.692	452
30.742	462
30.793	473
30.843	485
30.893	498
30.943	509
30.994	520
31.044	529
31.095	537
31.145	542
31.195	543
31.245	542
31.295	538
31.346	531
31.396	522
31.446	511
31.496	500
31.546	488
31.596	476
31.647	464
31.697	454
31.747	447
31.797	441
31.847	439
31.898	440
31.949	443
31.999	449
32.049	458
32.099	468
32.149	479
32.200	491
32.250	503
32.300	514
32.350	524
32.400	532
32.450	538
32.501	542
32.551	542
32.601	539
32.651	534
32.701	526
32.751	517
32.803	506
32.853	494
32.903	482
32.953	471
33.003	461
33.054	452
33.104	445
33.154	441
33.204	440
33.254	442
33.304	446
33.355	454
33.405	463
33.455	473
33.505	485
33.555	496
33.606	508
33.656	518
33.707	527
33.757	534
33.807	539
33.857	541
33.908	540
33.958	536
34.008	530
34.058	522
34.108	512
34.158	501
34.209	489
34.259	478
34.309	467
34.359	457
34.409	449
34.460	444
34.510	442
34.561	441
34.611	444
34.661	451
34.711	458
34.762	468
34.812	479
34.862	490
34.912	501
34.962	512
35.012	522
35.063	529
35.113	535
35.163	538
35.213	539
35.263	537
35.314	533
35.364	526
35.414	517
35.465	506
35.515	495
35.565	484
35.616	473
35.666	463
35.716	454
35.766	448
35.816	445
35.866	443
35.917	445
35.967	449
36.017	456
36.067	463
36.117	474
36.168	484
36.218	496
36.268	506
36.318	515
36.369	525
36.419	531
36.470	536
36.520	537
36.570	536
36.620	533
36.670	528
36.721	520
36.771	510
36.821	500
36.871	489
